wavelength flux error flag
3691.0 6.561375912646715e-17 1.0159300613024874e-21 0
3692.0 7.136154627834988e-17 1.0159300613024874e-21 0
3693.0 7.52817580865066e-17 1.0159300613024874e-21 0
3694.0 7.879119562724141e-17 1.0159300613024874e-21 0
3695.0 8.221458693163039e-17 1.0159300613024874e-21 0
3696.0 8.562253616576411e-17 1.0159300613024874e-21 0
3697.0 8.71246351113381e-17 1.0159300613024874e-21 0
3698.0 8.836488527844763e-17 1.0159300613024874e-21 0
3699.0 8.696756767153399e-17 1.0159300613024874e-21 0
3700.0 8.531118922819956e-17 1.0159300613024874e-21 0
3701.0 8.622938431334887e-17 1.0159300613024874e-21 0
3702.0 8.730631602310015e-17 1.0159300613024874e-21 0
3703.0 8.29057805677676e-17 1.0159300613024874e-21 0
3704.0 7.838087327777148e-17 1.0159300613024874e-21 0
3705.0 7.942018721992906e-17 1.0159300613024874e-21 0
3706.0 8.02558330102745e-17 1.0159300613024874e-21 0
3707.0 7.563870667163817e-17 1.0159300613024874e-21 0
3708.0 7.11225464534531e-17 1.0159300613024874e-21 0
3709.0 6.80041710024582e-17 1.0159300613024874e-21 0
3710.0 6.546491931525479e-17 1.0159300613024874e-21 0
3711.0 6.821243823463641e-17 1.0159300613024874e-21 0
3712.0 7.097104615678603e-17 1.0159300613024874e-21 0
3713.0 7.380380758965195e-17 1.0159300613024874e-21 0
3714.0 7.655790351409948e-17 1.0159300613024874e-21 0
3715.0 7.890341552636174e-17 1.0159300613024874e-21 0
3716.0 8.118008437507345e-17 1.0159300613024874e-21 0
3717.0 8.316854188893964e-17 1.0159300613024874e-21 0
3718.0 8.492620569477778e-17 1.0159300613024874e-21 0
3719.0 8.588511086036485e-17 1.0159300613024874e-21 0
3720.0 8.696569494124454e-17 1.0159300613024874e-21 0
3721.0 8.840078369856226e-17 1.0159300613024874e-21 0
3722.0 9.044179253470955e-17 1.0159300613024874e-21 0
3723.0 9.398891171021622e-17 1.0159300613024874e-21 0
3724.0 9.743231180959298e-17 1.0159300613024874e-21 0
3725.0 1.0065352686221011e-16 1.0159300613024874e-21 0
3726.0 1.0174617768300248e-16 1.0159300613024874e-21 0
3727.0 9.887900864857399e-17 1.0159300613024874e-21 0
3728.0 9.5282653771096e-17 1.0159300613024874e-21 0
3729.0 9.050146609898439e-17 1.0159300613024874e-21 0
3730.0 8.716960612785394e-17 1.0159300613024874e-21 0
3731.0 8.590337546519175e-17 1.0159300613024874e-21 0
3732.0 8.390747879397243e-17 1.0159300613024874e-21 0
3733.0 8.099671536870134e-17 1.0159300613024874e-21 0
3734.0 7.707578745999709e-17 1.0159300613024874e-21 0
3735.0 7.203859661013881e-17 1.0159300613024874e-21 0
3736.0 6.88817195676612e-17 1.0159300613024874e-21 0
3737.0 6.755753448349254e-17 1.0159300613024874e-21 0
3738.0 6.90432349995205e-17 7.638501879278341e-17 0
3739.0 7.294408758018873e-17 2.1842257787376702e-16 0
3740.0 7.707031712375969e-17 2.796467987851957e-16 0
3741.0 8.136716973542355e-17 2.796907662948126e-16 0
3742.0 8.187400221895516e-17 2.855477784854328e-16 0
3743.0 7.985935243942073e-17 2.952721814977433e-16 0
3744.0 7.952765149895433e-17 2.8794169987707397e-16 0
3745.0 8.017650840884321e-17 2.7067431427836526e-16 0
3746.0 8.4716022017701e-17 2.622900631459082e-16 0
3747.0 9.123123717536143e-17 2.584167272344849e-16 0
3748.0 9.20937505025495e-17 2.6628440178542944e-16 0
3749.0 9.047060988299883e-17 2.7931493294366227e-16 0
3750.0 9.072786925418143e-17 2.910315720712768e-16 0
3751.0 9.169504017711925e-17 3.0225217464555605e-16 0
3752.0 9.200156459632463e-17 3.0239646996165114e-16 0
3753.0 9.209636029500242e-17 2.9899095104169657e-16 0
3754.0 9.233185859365794e-17 3.059291290819272e-16 0
3755.0 9.260506221075439e-17 3.1563919895501704e-16 0
3756.0 9.467780699186813e-17 3.129826977552475e-16 0
3757.0 9.714552716771077e-17 3.076118983840255e-16 0
3758.0 9.498536126013463e-17 3.035997892078096e-16 0
3759.0 9.201731906086723e-17 2.998248625327429e-16 0
3760.0 9.164151577548072e-17 3.0114732453712804e-16 0
3761.0 9.161006287123873e-17 3.031469184699061e-16 0
3762.0 9.320579279300956e-17 3.1044238388062317e-16 0
3763.0 9.495443577793147e-17 3.182355241173034e-16 0
3764.0 9.188643881561748e-17 3.202258586331838e-16 0
3765.0 8.854058192381198e-17 3.218814437789437e-16 0
3766.0 8.170590045100373e-17 3.203006044727498e-16 0
3767.0 7.483129883165037e-17 3.1870210073741164e-16 0
3768.0 7.315516190043153e-17 3.2427438424674033e-16 0
3769.0 7.161318252714432e-17 3.2972719424749094e-16 0
3770.0 7.332999276618917e-17 3.3227790141702022e-16 0
3771.0 7.510652734446858e-17 3.3450516987090934e-16 0
3772.0 7.766570531860297e-17 3.324940126175593e-16 0
3773.0 7.998018696341688e-17 3.3139794782104366e-16 0
3774.0 8.014650381669089e-17 3.383353888896725e-16 0
3775.0 8.005583789983968e-17 3.4360277927095077e-16 0
3776.0 7.829893924185862e-17 3.3804184395064986e-16 0
3777.0 7.700142664220202e-17 3.3248694240602104e-16 0
3778.0 7.802899238511587e-17 3.2696257944845826e-16 0
3779.0 7.88438562713667e-17 3.208386121481321e-16 0
3780.0 7.878810022534107e-17 3.1226037622749784e-16 0
3781.0 7.926032712325116e-17 3.0926173518224684e-16 0
3782.0 8.1523309296361e-17 3.251873587772314e-16 0
3783.0 8.412660983647476e-17 3.3146981964618526e-16 0
3784.0 8.770324237088327e-17 3.1017222690219994e-16 0
3785.0 9.10047318298412e-17 2.969512549089547e-16 0
3786.0 9.363397882063889e-17 3.034634615864067e-16 0
3787.0 9.585892933541686e-17 3.1067462904683656e-16 0
3788.0 9.723175431745678e-17 3.193589786023015e-16 0
3789.0 9.765115406835477e-17 3.189976336434399e-16 0
3790.0 9.632416218980307e-17 3.020672650565193e-16 0
3791.0 9.38820777984374e-17 2.913076962955606e-16 0
3792.0 8.965501184328293e-17 2.9042601999338697e-16 0
3793.0 8.791125614843636e-17 2.9700164281435904e-16 0
3794.0 8.965562003246053e-17 3.1405197412935363e-16 0
3795.0 8.979979506303043e-17 3.1919254484134223e-16 0
3796.0 8.796612469616976e-17 3.0961256232468764e-16 0
3797.0 8.564608740520183e-17 3.0242852518304786e-16 0
3798.0 8.279615914728968e-17 2.9785484197088724e-16 0
3799.0 8.325894544524218e-17 2.967817201389333e-16 0
3800.0 8.690521673322355e-17 2.9907260218435355e-16 0
3801.0 9.093958501682493e-17 3.008829369186203e-16 0
3802.0 9.530281915600616e-17 3.022860651957058e-16 0
3803.0 9.605267604437138e-17 3.056263871905881e-16 0
3804.0 9.410617926617351e-17 3.10412270780968e-16 0
3805.0 9.599700793800118e-17 3.1560742566258206e-16 0
3806.0 1.0040340620493397e-16 3.210708795013178e-16 0
3807.0 9.994389607087311e-17 3.2815380105758837e-16 0
3808.0 9.669212897736088e-17 3.3616603932766526e-16 0
3809.0 9.225439969733791e-17 3.298813233229531e-16 0
3810.0 8.722390817826569e-17 3.164507685015393e-16 0
3811.0 8.695565388922684e-17 3.1348997784893827e-16 0
3812.0 8.874678535439013e-17 3.150567405578395e-16 0
3813.0 8.785400841584858e-17 3.1733948549747495e-16 0
3814.0 8.596587951509625e-17 3.198877589913955e-16 0
3815.0 8.651744302817623e-17 3.143119509902825e-16 0
3816.0 8.783593384924925e-17 3.061823046792348e-16 0
3817.0 8.871900439819356e-17 3.0210744541009413e-16 0
3818.0 8.948785428902997e-17 2.9909624916736634e-16 0
3819.0 8.833388947662735e-17 3.001587190012309e-16 0
3820.0 8.676795367960422e-17 3.0209398860189666e-16 0
3821.0 8.195282954467982e-17 3.139480454819191e-16 0
3822.0 7.658627902148323e-17 3.274854400071297e-16 0
3823.0 7.282951904181117e-17 3.419772439337467e-16 0
3824.0 6.927933088035035e-17 3.5659151974725574e-16 0
3825.0 6.706331828188145e-17 3.3498938839530985e-16 0
3826.0 6.496706305655428e-17 3.101364241641887e-16 0
3827.0 6.639838458186619e-17 3.213807027523411e-16 0
3828.0 6.8019310018784e-17 3.3456517397711943e-16 0
3829.0 6.794479442527245e-17 3.3994177625327247e-16 0
3830.0 6.783861607699224e-17 3.4496460360565226e-16 0
3831.0 6.792777465689118e-17 3.333408445150573e-16 0
3832.0 6.814856458857256e-17 3.2217658768204426e-16 0
3833.0 7.129367013409834e-17 3.2122061032233484e-16 0
3834.0 7.436363793961901e-17 3.2090980609558596e-16 0
3835.0 7.649929249065103e-17 3.286215190422846e-16 0
3836.0 7.829835130239345e-17 3.352948712957204e-16 0
3837.0 7.725241198091952e-17 3.3319171841521476e-16 0
3838.0 7.641939954900605e-17 3.3074330201277295e-16 0
3839.0 7.692591332722548e-17 3.2612282768945934e-16 0
3840.0 7.752614396892965e-17 3.194208777255623e-16 0
3841.0 7.858878959948585e-17 3.0244857193298574e-16 0
3842.0 7.969032033074657e-17 2.888077536604008e-16 0
3843.0 8.094751210706627e-17 2.8850322151198713e-16 0
3844.0 8.261948574227621e-17 2.90025893815262e-16 0
3845.0 8.567043426089999e-17 2.9762325089979023e-16 0
3846.0 8.814884703834829e-17 3.027280051931251e-16 0
3847.0 8.90195112945353e-17 3.0083323410590466e-16 0
3848.0 8.909535607702964e-17 3.010612463533448e-16 0
3849.0 8.726215967185522e-17 3.06387876529126e-16 0
3850.0 8.634912407055412e-17 3.099416670043845e-16 0
3851.0 8.734442680449987e-17 3.0981873277183797e-16 0
3852.0 8.635031641309204e-17 3.0494001518597275e-16 0
3853.0 8.176800440909654e-17 2.9148353701331997e-16 0
3854.0 7.918811636204185e-17 2.92152153144177e-16 0
3855.0 7.976617818630068e-17 3.1509694090364706e-16 0
3856.0 8.073264016684841e-17 3.2916362492802926e-16 0
3857.0 8.223678951171004e-17 3.309397778593349e-16 0
3858.0 8.134888321289257e-17 3.321398591957916e-16 0
3859.0 7.754630877279535e-17 3.326380097351787e-16 0
3860.0 7.625288453230772e-17 3.3670642741682503e-16 0
3861.0 7.765472202012009e-17 3.446099301363601e-16 0
3862.0 7.72088360135729e-17 3.472603214039916e-16 0
3863.0 7.501224209084023e-17 3.449334182704174e-16 0
3864.0 7.067068836765698e-17 3.4353195114140844e-16 0
3865.0 6.453723758325405e-17 3.4290359223409176e-16 0
3866.0 6.077975613926624e-17 3.6476878588810057e-16 0
3867.0 5.876981236229019e-17 4.031781031118849e-16 0
3868.0 5.4793999385202726e-17 4.3011237067696505e-16 0
3869.0 4.954838472418052e-17 4.496346306786571e-16 0
3870.0 4.6446856904999925e-17 4.620071990974948e-16 0
3871.0 4.455703048189617e-17 4.703392169642745e-16 0
3872.0 4.827546948589706e-17 4.605952732322174e-16 0
3873.0 5.475266182360098e-17 4.419596106667984e-16 0
3874.0 6.176109625760217e-17 4.0843658904050967e-16 0
3875.0 6.899542894334813e-17 3.6858306686016597e-16 0
3876.0 7.294850145332521e-17 3.6374917090692853e-16 0
3877.0 7.570637357833528e-17 3.716711883851004e-16 0
3878.0 7.739954339430663e-17 3.655528814349849e-16 0
3879.0 7.876448918349167e-17 3.5510625493290033e-16 0
3880.0 8.029407784089103e-17 3.4222261226704744e-16 0
3881.0 8.186593311684617e-17 3.287133461914143e-16 0
3882.0 8.067026779933309e-17 3.3571880289992795e-16 0
3883.0 7.88960073533416e-17 3.470131955943226e-16 0
3884.0 8.17021396118789e-17 3.392515622467051e-16 0
3885.0 8.526356503516305e-17 3.283476467531618e-16 0
3886.0 8.428188396373222e-17 3.3107738173916035e-16 0
3887.0 8.273757897132566e-17 3.354955248439067e-16 0
3888.0 8.462639344377034e-17 3.39822471750399e-16 0
3889.0 8.680901726176542e-17 3.441416140070386e-16 0
3890.0 8.798455336879715e-17 3.4590721628139503e-16 0
3891.0 8.910989639915258e-17 3.4754555056634845e-16 0
3892.0 8.878793987275108e-17 3.386507566246094e-16 0
3893.0 8.841801018636049e-17 3.297690103590662e-16 0
3894.0 8.648054557164432e-17 3.32871287919881e-16 0
3895.0 8.46942235976385e-17 3.3557445122358414e-16 0
3896.0 8.599963845446001e-17 3.301134310604572e-16 0
3897.0 8.68197535922081e-17 3.261921632758774e-16 0
3898.0 8.190082122521155e-17 3.4047966771745407e-16 0
3899.0 7.71822629805555e-17 3.538882111212898e-16 0
3900.0 7.409610347850313e-17 3.6013607491217817e-16 0
3901.0 7.099883282208373e-17 3.661018444881304e-16 0
3902.0 6.783369651281051e-17 3.703446150461082e-16 0
3903.0 6.460232504238784e-17 3.774012417963601e-16 0
3904.0 6.105221083239662e-17 3.979989578398581e-16 0
3905.0 5.8378003145054e-17 4.151515082035277e-16 0
3906.0 5.913400901033644e-17 4.188121462450337e-16 0
3907.0 6.062294169476977e-17 4.1768117357196045e-16 0
3908.0 6.45008390672443e-17 4.009320129749807e-16 0
3909.0 6.880921425557506e-17 3.880515929104268e-16 0
3910.0 7.430465546598617e-17 3.8583943556494745e-16 0
3911.0 7.905839724686079e-17 3.8188526660532996e-16 0
3912.0 8.206065544615801e-17 3.738174302764562e-16 0
3913.0 8.519490304504546e-17 3.6719204929194466e-16 0
3914.0 8.859852611825587e-17 3.635105569362442e-16 0
3915.0 9.069801467285424e-17 3.604411715224208e-16 0
3916.0 9.048117215925526e-17 3.584589763533877e-16 0
3917.0 8.962257042191253e-17 3.548510106312649e-16 0
3918.0 8.776679865017947e-17 3.48716911090795e-16 0
3919.0 8.963156333779061e-17 3.461527502739555e-16 0
3920.0 9.657278601561816e-17 3.4845956549946627e-16 0
3921.0 1.0092400605986984e-16 3.4023227756971597e-16 0
3922.0 1.0216405790258583e-16 3.1935119294359067e-16 0
3923.0 9.934226751405082e-17 3.092957997514799e-16 0
3924.0 9.221865698421239e-17 3.107056912265279e-16 0
3925.0 8.819374237452148e-17 3.1646734915626063e-16 0
3926.0 8.706357905297411e-17 3.2629435647006545e-16 0
3927.0 8.643459111907243e-17 3.2209502253069976e-16 0
3928.0 8.621835702437563e-17 3.0634399163063484e-16 0
3929.0 8.400356322578446e-17 3.0206242346264487e-16 0
3930.0 8.033996040266665e-17 3.0609537353512684e-16 0
3931.0 7.656118526417521e-17 3.1085855897781647e-16 0
3932.0 7.2709113761455e-17 3.160864706656444e-16 0
3933.0 7.082789612584751e-17 3.263223907602823e-16 0
3934.0 7.004351306513804e-17 3.3934540576014333e-16 0
3935.0 7.574364888954886e-17 3.4228699546172925e-16 0
3936.0 8.458283937490617e-17 3.4034832409349987e-16 0
3937.0 8.796925937052197e-17 3.3588483341656093e-16 0
3938.0 8.907595990788541e-17 3.303657546275852e-16 0
3939.0 8.691095889676077e-17 3.34513327976097e-16 0
3940.0 8.357565353497724e-17 3.421187121564176e-16 0
3941.0 8.538104017632998e-17 3.466323566262662e-16 0
3942.0 8.874023858538926e-17 3.502115001491826e-16 0
3943.0 8.655267169540252e-17 3.457053223267789e-16 0
3944.0 8.29719751916418e-17 3.391684293044763e-16 0
3945.0 8.419981287689604e-17 3.402659589915356e-16 0
3946.0 8.640821886605025e-17 3.4292031922884365e-16 0
3947.0 8.818074804525427e-17 3.374115125763697e-16 0
3948.0 8.988348397521915e-17 3.3059560738524144e-16 0
3949.0 9.546844953060211e-17 3.2842096814761023e-16 0
3950.0 1.0151693680024384e-16 3.2680047633521386e-16 0
3951.0 9.959696185115954e-17 3.374449778419998e-16 0
3952.0 9.702809623461627e-17 3.49088246674627e-16 0
3953.0 9.635573567484299e-17 3.4663385037720777e-16 0
3954.0 9.577053753384741e-17 3.435315324792281e-16 0
3955.0 9.882030095848407e-17 3.36906606071359e-16 0
3956.0 1.0183187823309383e-16 3.3039284964164604e-16 0
3957.0 1.0042894155754105e-16 3.3203192344128726e-16 0
3958.0 9.896274051453153e-17 3.3338244728669596e-16 0
3959.0 9.629808085448142e-17 3.292667791349592e-16 0
3960.0 9.378825532582566e-17 3.2608545365146123e-16 0
3961.0 9.302336183856868e-17 3.3343387664637437e-16 0
3962.0 9.162226528753213e-17 3.4081502024504834e-16 0
3963.0 8.52203773943398e-17 3.484533598889992e-16 0
3964.0 7.922057911024693e-17 3.543085476454306e-16 0
3965.0 7.560667167414563e-17 3.4958299500784917e-16 0
3966.0 7.320658462843587e-17 3.432779037206197e-16 0
3967.0 7.650576469772379e-17 3.2955638348387884e-16 0
3968.0 7.928912779604267e-17 3.1867409337225313e-16 0
3969.0 8.00957568031317e-17 3.1867241265705374e-16 0
3970.0 8.061739599859615e-17 3.2024198165493087e-16 0
3971.0 8.022811546696681e-17 3.2683377355850736e-16 0
3972.0 8.097381684458149e-17 3.327258382062709e-16 0
3973.0 8.479340684535766e-17 3.367228209734853e-16 0
3974.0 8.811576018462206e-17 3.3807152436972697e-16 0
3975.0 9.028353656454494e-17 3.3327095805136606e-16 0
3976.0 9.035116305887124e-17 3.324808796777017e-16 0
3977.0 8.62005158624041e-17 3.397461005473826e-16 0
3978.0 8.498625045181906e-17 3.422287976933818e-16 0
3979.0 8.890822962254402e-17 3.363460255809727e-16 0
3980.0 9.224077931162627e-17 3.320123368389534e-16 0
3981.0 9.467093214133142e-17 3.300502430237049e-16 0
3982.0 9.657030066147107e-17 3.28533807218616e-16 0
3983.0 9.775584354883939e-17 3.2761671488576016e-16 0
3984.0 9.756448981645394e-17 3.3040531669449303e-16 0
3985.0 9.574257101026763e-17 3.375823201847867e-16 0
3986.0 9.486360402963159e-17 3.4035055364224165e-16 0
3987.0 9.496927395564963e-17 3.3851511852442204e-16 0
3988.0 9.803148698378968e-17 3.3232214537357583e-16 0
3989.0 1.038168347589491e-16 3.221156460134631e-16 0
3990.0 1.0628064237171929e-16 3.2438278135163516e-16 0
3991.0 1.0604770532937059e-16 3.367772088669123e-16 0
3992.0 1.056791269505069e-16 3.4218528507301485e-16 0
3993.0 1.0521363606887497e-16 3.426017797451532e-16 0
3994.0 1.0287036959376299e-16 3.4170455874528584e-16 0
3995.0 9.934974185122961e-17 3.399836408382936e-16 0
3996.0 9.714943940391506e-17 3.4094091786404985e-16 0
3997.0 9.567269243966446e-17 3.4336588064521914e-16 0
3998.0 9.372612136453431e-17 3.4740169757284098e-16 0
3999.0 9.155575332177392e-17 3.5220483202402667e-16 0
4000.0 9.46819159148132e-17 3.48929130336937e-16 0
4001.0 9.998502616209364e-17 3.423329147909556e-16 0
4002.0 1.0017579661836074e-16 3.358583376315932e-16 0
4003.0 9.857099932449658e-17 3.294264825863937e-16 0
4004.0 9.797215313898714e-17 3.3472872883786584e-16 0
4005.0 9.767136226260738e-17 3.4350769593619745e-16 0
4006.0 9.810925830593022e-17 3.44923697397251e-16 0
4007.0 9.872861530263884e-17 3.445309613151716e-16 0
4008.0 1.0159743337141502e-16 3.4174468911915362e-16 0
4009.0 1.0491349454416595e-16 3.384825284828482e-16 0
4010.0 1.0341516191411407e-16 3.436431153213604e-16 0
4011.0 1.0116874487001026e-16 3.5011247048408793e-16 0
4012.0 1.0265751715330297e-16 3.4856335476789353e-16 0
4013.0 1.0457578127758094e-16 3.460922328244873e-16 0
4014.0 1.0684397799260698e-16 3.491324423188059e-16 0
4015.0 1.0913922989754572e-16 3.5259876279181555e-16 0
4016.0 1.0688280147695871e-16 3.571143217235458e-16 0
4017.0 1.0443471205464531e-16 3.616740617224131e-16 0
4018.0 1.04540641397937e-16 3.6023561484977146e-16 0
4019.0 1.0465700731018524e-16 3.588505648825095e-16 0
4020.0 1.0420915049242565e-16 3.6220403541416914e-16 0
4021.0 1.038568525154866e-16 3.6517322095869067e-16 0
4022.0 1.0518932016415769e-16 3.613672077752963e-16 0
4023.0 1.0633185621173795e-16 3.5764755387693477e-16 0
4024.0 1.0543076428758061e-16 3.5485710949135993e-16 0
4025.0 1.0428248633252603e-16 3.5147771306220446e-16 0
4026.0 1.0125772671813894e-16 3.4362736128013597e-16 0
4027.0 9.878754099396257e-17 3.356726526820965e-16 0
4028.0 9.951608397288644e-17 3.2711602403606606e-16 0
4029.0 9.988259852761832e-17 3.1917633833496993e-16 0
4030.0 9.8589953744882e-17 3.1406407329858384e-16 0
4031.0 9.71138573884579e-17 3.1386368675609614e-16 0
4032.0 9.494961387188371e-17 3.3208830016662295e-16 0
4033.0 9.203404284758042e-17 3.4458179492785654e-16 0
4034.0 8.676305442919255e-17 3.3910818956931758e-16 0
4035.0 8.294416263800557e-17 3.3307569231895407e-16 0
4036.0 8.298835536345918e-17 3.255563473111205e-16 0
4037.0 8.380317521888564e-17 3.265686305049284e-16 0
4038.0 8.637767795420836e-17 3.4706239767477734e-16 0
4039.0 9.036699282669357e-17 3.5640328955044383e-16 0
4040.0 9.71532636474256e-17 3.4369595320219905e-16 0
4041.0 1.0107266219278068e-16 3.3890469287245815e-16 0
4042.0 1.0005323111143203e-16 3.4775064655577793e-16 0
4043.0 9.912250531732278e-17 3.512342974195015e-16 0
4044.0 9.83255942055168e-17 3.4662874784715875e-16 0
4045.0 9.881012334576396e-17 3.408962078855843e-16 0
4046.0 1.0099330516120474e-16 3.336697510312645e-16 0
4047.0 1.0334546245339174e-16 3.325537742072506e-16 0
4048.0 1.0589489900223027e-16 3.3857179683318763e-16 0
4049.0 1.064328100804533e-16 3.41707247087703e-16 0
4050.0 1.0489976251845245e-16 3.4187495557316214e-16 0
4051.0 1.0300561982538795e-16 3.416048696397638e-16 0
4052.0 1.0078356642881444e-16 3.409372223339454e-16 0
4053.0 9.959588226180935e-17 3.3498108872153225e-16 0
4054.0 9.923607475191707e-17 3.2479221670243105e-16 0
4055.0 1.0128441524181584e-16 3.2449847575217924e-16 0
4056.0 1.0502845709437799e-16 3.311724075689819e-16 0
4057.0 1.0404861812435847e-16 3.368434814589783e-16 0
4058.0 1.0015085133679729e-16 3.4189509284524644e-16 0
4059.0 9.760116650983018e-17 3.4339144492701225e-16 0
4060.0 9.577889475345199e-17 3.4296941061757656e-16 0
4061.0 9.646167921632556e-17 3.382160042143357e-16 0
4062.0 9.831853336864706e-17 3.3143257044086027e-16 0
4063.0 9.567497769905382e-17 3.390384696438161e-16 0
