wavelength flux error flag
3691.0 -2.446303329261858e-18 3.640342735846335e-16 0
3692.0 -1.2171248755022258e-20 3.6005822580594315e-16 0
3693.0 1.7999631736965866e-19 3.4509262879671765e-16 0
3694.0 -1.3175040608217036e-19 3.276569699922468e-16 0
3695.0 5.966105228196652e-19 3.234263875007975e-16 0
3696.0 1.5116317418486708e-18 3.2156562064349175e-16 0
3697.0 5.8649201306452665e-18 3.0523271672648124e-16 0
3698.0 1.0690599275338282e-17 2.869114554691269e-16 0
3699.0 1.435517469948417e-17 2.876206807175321e-16 0
3700.0 1.7905706987382062e-17 2.9019907262782626e-16 0
3701.0 2.0156394111946374e-17 2.8002874738242715e-16 0
3702.0 2.23269386298032e-17 2.6907239357466187e-16 0
3703.0 1.675424133413775e-17 2.196744134290766e-16 0
3704.0 1.0968896256850648e-17 1.6985117869021736e-16 0
3705.0 5.1591939467894716e-18 2.5497288908881206e-16 0
3706.0 -3.878463702794716e-19 3.36947701735091e-16 0
3707.0 1.0973173268169066e-18 3.3467116627461296e-16 0
3708.0 2.6480477558997153e-18 3.21310674194866e-16 0
3709.0 5.106490383841542e-18 1.5450281132017308e-16 0
3710.0 7.442429827140331e-18 1.9240381215253544e-17 0
3711.0 8.660048323732032e-18 1.7195347062171795e-16 0
3712.0 9.602234602235848e-18 2.964228933179601e-16 0
3713.0 8.70257212635561e-18 2.3202348029629047e-16 0
3714.0 7.703590260549214e-18 1.9100541681396305e-16 0
3715.0 6.188749466124916e-18 2.7142867442687145e-16 0
3716.0 4.601593599581166e-18 3.371857360316305e-16 0
3717.0 2.7116912816821246e-18 3.4154288934321926e-16 0
3718.0 8.500042008339655e-19 3.446940866797892e-16 0
3719.0 -9.140321919876928e-19 3.43671566443904e-16 0
3720.0 -1.6864965591520944e-18 3.433476977976333e-16 0
3721.0 4.2992840405983976e-19 3.450593112652815e-16 0
3722.0 3.190132119795311e-18 3.432862552756897e-16 0
3723.0 7.550549905525813e-18 3.328515013457739e-16 0
3724.0 1.0886399185233224e-17 3.2517237094427497e-16 0
3725.0 1.202743715429966e-17 3.233962852415769e-16 0
3726.0 1.2447884676867005e-17 3.2430219460765403e-16 0
3727.0 1.152780025077739e-17 3.3019748468686845e-16 0
3728.0 1.0138997071984862e-17 3.354756293114521e-16 0
3729.0 7.988586471770611e-18 3.3975099229857617e-16 0
3730.0 7.858399686552245e-18 3.357982192487291e-16 0
3731.0 1.0607502049741123e-17 3.201184372273944e-16 0
3732.0 1.0848197510382247e-17 2.9628613541335634e-16 0
3733.0 7.943812819471765e-18 2.6223207565441677e-16 0
3734.0 5.0744197639737116e-18 2.693122695680581e-16 0
3735.0 2.243693545908426e-18 3.218470837339164e-16 0
3736.0 6.3157355256111025e-18 3.2312802067253306e-16 0
3737.0 1.7115722445388834e-17 2.7445316392511073e-16 0
3738.0 2.1043242344239994e-17 2.713462314410127e-16 0
3739.0 1.906374136167108e-17 3.0740582814167545e-16 0
3740.0 1.4795474231455282e-17 3.339033747819855e-16 0
3741.0 8.794482082546003e-18 3.5316191040030594e-16 0
3742.0 7.286739701285272e-18 3.4760362423391697e-16 0
3743.0 8.768334898618003e-18 3.2553482523638563e-16 0
3744.0 6.675149837409134e-18 3.3259644202064544e-16 0
3745.0 2.4991451655048187e-18 3.566306828181025e-16 0
3746.0 -1.0367458108447912e-18 3.6778736284875993e-16 0
3747.0 -4.247582762239595e-18 3.7240473121038497e-16 0
3748.0 -8.255442085042002e-18 3.1666060018069775e-16 0
3749.0 -1.2613774838522921e-17 2.343737991689742e-16 0
3750.0 -9.380772999880008e-18 2.795073122085634e-16 0
3751.0 -3.2817978860052358e-18 3.7274609716853377e-16 0
3752.0 2.8996317154993038e-18 3.904422091907545e-16 0
3753.0 9.107486921421601e-18 3.839278646435689e-16 0
3754.0 1.0712218792115896e-17 3.8311417706310626e-16 0
3755.0 1.1083411046590256e-17 3.8382814487982074e-16 0
3756.0 1.1758010152592448e-17 3.8656625884331857e-16 0
3757.0 1.2499203034464777e-17 3.8974864601339864e-16 0
3758.0 8.926183043757592e-18 3.921587009728741e-16 0
3759.0 4.600043759653403e-18 3.944339321983573e-16 0
3760.0 2.5008051204979583e-19 3.061002189090058e-16 0
3761.0 -4.103047486637312e-18 2.057301055750012e-16 0
3762.0 -1.8418676307919913e-18 2.925048988399519e-16 0
3763.0 1.040885940367829e-18 3.9686646874959514e-16 0
3764.0 9.265825242441785e-19 4.081076889994732e-16 0
3765.0 6.393863753667517e-19 4.1397702883600715e-16 0
3766.0 2.244724684975156e-19 4.130065415586548e-16 0
3767.0 -1.6954045886723352e-19 4.1179944484796965e-16 0
3768.0 2.3382743269840213e-18 4.0158382928861525e-16 0
3769.0 4.801849996102731e-18 3.9144170149501004e-16 0
3770.0 6.19082370995751e-18 3.8308464769461973e-16 0
3771.0 7.456694934947341e-18 3.7629040500080693e-16 0
3772.0 7.109398879088965e-18 3.8997564868068346e-16 0
3773.0 6.915015299038412e-18 4.0233457994305074e-16 0
3774.0 8.063035169132648e-18 4.030499461148111e-16 0
3775.0 8.891259337867092e-18 4.029446501517205e-16 0
3776.0 7.645982361685787e-18 3.9751831995031084e-16 0
3777.0 6.558253652852258e-18 3.94119657809973e-16 0
3778.0 6.267919766264493e-18 4.009835776729183e-16 0
3779.0 5.285402462696417e-18 4.081785911942384e-16 0
3780.0 1.4696767938201642e-18 4.167288196767894e-16 0
3781.0 -1.8690131514435306e-18 4.2206183533789547e-16 0
3782.0 -3.5897450767944796e-18 4.164830575450362e-16 0
3783.0 -3.880798032899699e-18 4.115682715818296e-16 0
3784.0 -8.287896381547259e-20 4.0855254413092425e-16 0
3785.0 2.4671827073342247e-18 4.0702234718028836e-16 0
3786.0 1.968420650226397e-18 4.0912166803013876e-16 0
3787.0 1.691714127253052e-19 3.9661674568285404e-16 0
3788.0 -4.371082006463408e-18 3.5333082658508574e-16 0
3789.0 -6.241275607445424e-18 3.4371086372949456e-16 0
3790.0 -3.220713264134792e-18 3.957569259153609e-16 0
3791.0 3.649638927259157e-19 4.248670234105612e-16 0
3792.0 4.855247180485362e-18 4.1726243252781297e-16 0
3793.0 7.10947069929176e-18 4.122303786015767e-16 0
3794.0 6.222868851136832e-18 4.1081177429893487e-16 0
3795.0 4.81759103654108e-18 4.1323247591225123e-16 0
3796.0 2.7712258460594546e-18 4.2039858836805263e-16 0
3797.0 6.800249892354049e-19 4.2454068641287327e-16 0
3798.0 -1.4600237916850113e-18 4.2538815679930804e-16 0
3799.0 -2.245815562555029e-18 4.2241668647089424e-16 0
3800.0 -1.7301801227695385e-18 4.157752529631876e-16 0
3801.0 -2.2041561649977534e-18 4.1024569057302245e-16 0
3802.0 -3.516709754584111e-18 4.056583061705551e-16 0
3803.0 -2.8604837532136146e-18 4.003465434791708e-16 0
3804.0 -7.351263270708395e-19 3.944942393718968e-16 0
3805.0 4.979343738566328e-19 3.962408279719759e-16 0
3806.0 1.1460474228333064e-18 4.029688922639215e-16 0
3807.0 1.291026068984778e-19 4.0699080405224756e-16 0
3808.0 -1.843320411264524e-18 4.0945981501736336e-16 0
3809.0 -2.8424790537865055e-18 4.0895340578881727e-16 0
3810.0 -3.355185112023985e-18 4.069598355393144e-16 0
3811.0 -2.7728351533911282e-18 4.06811948690891e-16 0
3812.0 -1.7169382771511648e-18 4.074622106786866e-16 0
3813.0 1.3470169667785559e-18 4.063159847988213e-16 0
3814.0 5.155679009850438e-18 4.0450351497348616e-16 0
3815.0 7.930373354602113e-18 3.9732031272085503e-16 0
3816.0 1.038003571625276e-17 3.8844879872078247e-16 0
3817.0 7.413448865556108e-18 3.7941747919108553e-16 0
3818.0 3.0260564412324804e-18 3.7034423902991752e-16 0
3819.0 4.052989696746615e-18 3.883469968703794e-16 0
3820.0 6.23996457125889e-18 4.1215089901118606e-16 0
3821.0 5.650115386240074e-18 4.1755822711169717e-16 0
3822.0 4.589005719286999e-18 4.1984343506260366e-16 0
3823.0 4.806296676949641e-18 4.293624969027971e-16 0
3824.0 5.187634778814713e-18 4.398098225824046e-16 0
3825.0 3.836583097234582e-18 4.400267971161155e-16 0
3826.0 2.3300298044139343e-18 4.3932548172342226e-16 0
3827.0 7.3827349514625e-19 4.2438493340359476e-16 0
3828.0 -8.580623956134749e-19 4.086790397909219e-16 0
3829.0 1.4443251492302937e-18 4.1096122093020777e-16 0
3830.0 3.776513633121836e-18 4.1366254505128714e-16 0
3831.0 2.0307829468534946e-18 4.2131215220993673e-16 0
3832.0 3.688372719001283e-19 4.2863441419416717e-16 0
3833.0 5.682552726726217e-19 4.286843919413372e-16 0
3834.0 1.0508572434397152e-18 4.2792930817670373e-16 0
3835.0 5.0547593838242365e-18 4.1716354747255293e-16 0
3836.0 8.414112058730704e-18 4.056569404352794e-16 0
3837.0 6.325558500715485e-18 3.8788850002131897e-16 0
3838.0 4.642143476428423e-18 3.7442197732831144e-16 0
3839.0 5.50746095738727e-18 3.880188826173063e-16 0
3840.0 6.310920075833978e-18 4.0051442372398555e-16 0
3841.0 6.809159483037251e-18 4.0757564610562145e-16 0
3842.0 6.514490437361816e-18 4.1361866686870563e-16 0
3843.0 3.045727556902717e-18 4.155857221552228e-16 0
3844.0 1.7310394674977523e-19 4.1527719764737477e-16 0
3845.0 -7.176078146827963e-19 4.0740332929823774e-16 0
3846.0 -8.474051888670205e-19 3.999801433514442e-16 0
3847.0 1.1595356227488113e-18 3.93822527243904e-16 0
3848.0 2.451710036505701e-18 3.8900016927608476e-16 0
3849.0 2.027119149162303e-18 3.87384907849389e-16 0
3850.0 1.4708100109833459e-18 3.872515101755666e-16 0
3851.0 6.413279812151482e-19 3.9019137686523093e-16 0
3852.0 6.6478183376629e-19 3.914188619064496e-16 0
3853.0 2.2266320452075515e-18 3.895578126889904e-16 0
3854.0 3.594139794596916e-18 3.914510273002315e-16 0
3855.0 4.655157127258968e-18 3.9926495462249816e-16 0
3856.0 3.8459756477215344e-18 4.070439419458041e-16 0
3857.0 4.477574394591495e-19 4.14774559577064e-16 0
3858.0 -1.798303791728581e-19 4.21700626124132e-16 0
3859.0 2.5685350954457736e-18 4.276463645507723e-16 0
3860.0 4.745150946381818e-18 4.3290707017675336e-16 0
3861.0 6.307608713389142e-18 4.374319319738022e-16 0
3862.0 4.81430176077141e-18 4.446713458641183e-16 0
3863.0 4.256744309550079e-19 4.544827830323157e-16 0
3864.0 -2.4556926412948533e-19 4.591452031614489e-16 0
3865.0 2.188685245975158e-18 4.595061401119552e-16 0
3866.0 3.84593636926148e-18 4.708232894874593e-16 0
3867.0 4.931697506223524e-18 4.901987894379424e-16 0
3868.0 5.136874994670542e-18 5.061841605000623e-16 0
3869.0 4.77326255565626e-18 5.199797666627905e-16 0
3870.0 4.590638113237681e-18 5.234178459023322e-16 0
3871.0 4.510296565274908e-18 5.210025102578251e-16 0
3872.0 4.4905248875324014e-18 5.164089602715655e-16 0
3873.0 4.5005480427135544e-18 5.107439281746719e-16 0
3874.0 3.819710640851847e-18 5.006411359270107e-16 0
3875.0 2.845100977486082e-18 4.886512901745385e-16 0
3876.0 2.097170354152212e-18 4.782630247658273e-16 0
3877.0 1.4318076655133073e-18 4.684581356640469e-16 0
3878.0 3.5715564046368146e-18 4.546295333389428e-16 0
3879.0 6.57605856881467e-18 4.395605097753565e-16 0
3880.0 7.578271626393465e-18 4.162219174020118e-16 0
3881.0 8.06646308786628e-18 3.907603863657682e-16 0
3882.0 8.729280882911293e-18 4.0032071686544693e-16 0
3883.0 9.428607149166019e-18 4.172029363233345e-16 0
3884.0 9.256545507057862e-18 4.0070851676734314e-16 0
3885.0 8.940794584688038e-18 3.7871038848251716e-16 0
3886.0 4.112130849320726e-18 3.94464661731267e-16 0
3887.0 -1.2754175841763814e-18 4.1489423902621955e-16 0
3888.0 1.534221811435435e-18 4.168528147171205e-16 0
3889.0 5.045383660920967e-18 4.1723062604822897e-16 0
3890.0 3.3812325061766207e-18 4.102575772780667e-16 0
3891.0 1.4591446497752608e-18 4.0291816291662247e-16 0
3892.0 1.7566535399268377e-18 4.0870610994165323e-16 0
3893.0 2.088184546678538e-18 4.14618293740423e-16 0
3894.0 2.269315223720253e-18 4.1466910512233197e-16 0
3895.0 2.430705971649701e-18 4.149380416117709e-16 0
3896.0 2.1883015656273557e-18 4.1966889186366094e-16 0
3897.0 2.2154066226534838e-18 4.246744333050117e-16 0
3898.0 5.4296711826081085e-18 4.3292841220365183e-16 0
3899.0 8.076934503380082e-18 4.4112143905504107e-16 0
3900.0 6.1049780412519705e-18 4.488179045534505e-16 0
3901.0 4.547809348163903e-18 4.560580253181722e-16 0
3902.0 5.524116638925784e-18 4.60510844938913e-16 0
3903.0 5.9276422285308806e-18 4.679552119784653e-16 0
3904.0 3.574776719615243e-18 4.8979576985191e-16 0
3905.0 2.0569392697532403e-18 5.059174253928726e-16 0
3906.0 3.809227673420338e-18 4.996427911702878e-16 0
3907.0 4.710980891212375e-18 4.936693774576231e-16 0
3908.0 2.8404265990321937e-18 4.886777877725556e-16 0
3909.0 1.4991688873398821e-18 4.83219177602261e-16 0
3910.0 1.6174753231071505e-18 4.764727330088944e-16 0
3911.0 2.0566243081219287e-18 4.697332883818308e-16 0
3912.0 3.25342583391004e-18 4.630103738012562e-16 0
3913.0 3.6740689263512665e-18 4.549694333695103e-16 0
3914.0 2.5106602178017225e-18 4.442385508671778e-16 0
3915.0 1.5622068798481635e-18 4.3653665860973023e-16 0
3916.0 9.955452942647999e-19 4.34214690055982e-16 0
3917.0 -3.1891677155526987e-19 4.3207131986585257e-16 0
3918.0 -2.7953165283441715e-18 4.302054570800622e-16 0
3919.0 -3.4253305089737885e-18 4.2853801805284153e-16 0
3920.0 -1.5360573037823944e-18 4.271413168306786e-16 0
3921.0 1.5534204788235676e-18 4.214927815980235e-16 0
3922.0 6.0846104312099966e-18 4.107368497163589e-16 0
3923.0 7.130821218420892e-18 4.0669170782896116e-16 0
3924.0 4.486156606919501e-18 4.097538364650922e-16 0
3925.0 2.7683265568000974e-18 4.132243036047035e-16 0
3926.0 1.91633026694482e-18 4.17076233927347e-16 0
3927.0 3.739619556276502e-18 4.134181076469013e-16 0
3928.0 7.76619819500362e-18 4.0357491168429793e-16 0
3929.0 1.2349740996650349e-17 3.8803347253086303e-16 0
3930.0 1.733704191670779e-17 3.6836122550477006e-16 0
3931.0 1.6507909818054208e-17 3.6701776877327066e-16 0
3932.0 1.1977164257270975e-17 3.773388660185408e-16 0
3933.0 6.13286081728727e-18 3.862770264296114e-16 0
3934.0 -4.424738381905992e-19 3.9444554432179133e-16 0
3935.0 -1.9066644252689944e-18 3.9576662009958293e-16 0
3936.0 -8.966297236379855e-19 3.937729557300285e-16 0
3937.0 -1.9267504496801913e-18 3.973862304161739e-16 0
3938.0 -3.8098287749970906e-18 4.0334368006632377e-16 0
3939.0 -3.99698913838469e-18 4.0000791012152515e-16 0
3940.0 -3.577510986678031e-18 3.9334790807229685e-16 0
3941.0 -2.4901226982545653e-18 3.9437743202657452e-16 0
3942.0 -1.2008536845186509e-18 3.977311714726661e-16 0
3943.0 6.047064209518175e-19 3.9788153269663146e-16 0
3944.0 2.539938573182008e-18 3.9722733111240844e-16 0
3945.0 3.355542842777042e-18 3.960436087334322e-16 0
3946.0 3.942829797631394e-18 3.947519051512076e-16 0
3947.0 5.112864627744853e-18 3.939508031089427e-16 0
3948.0 6.376209922588432e-18 3.9322825692185035e-16 0
3949.0 1.0805217739629234e-17 3.8343917122002114e-16 0
3950.0 1.5612192204867878e-17 3.725675792411931e-16 0
3951.0 8.015650647711665e-18 3.8508254983221355e-16 0
3952.0 -5.90938465633687e-19 3.9950194335691587e-16 0
3953.0 1.922057915012922e-18 4.0384021600143134e-16 0
3954.0 4.946104853633107e-18 4.0771516539944606e-16 0
3955.0 9.519865173855916e-18 4.0159930269829566e-16 0
3956.0 1.3950548781244793e-17 3.9541570499210765e-16 0
3957.0 9.874577441803179e-18 3.923431693674618e-16 0
3958.0 6.0362989105785154e-18 3.898242949256119e-16 0
3959.0 6.700791934146419e-18 3.977937892467371e-16 0
3960.0 7.201021663161175e-18 4.054132782038148e-16 0
3961.0 5.850055642826125e-18 4.0908831661314947e-16 0
3962.0 4.600610400192175e-18 4.1212945364573507e-16 0
3963.0 4.149156011548319e-18 4.101878914473632e-16 0
3964.0 4.051085916653436e-18 4.084655181966837e-16 0
3965.0 6.0499025186517125e-18 4.0804375280167997e-16 0
3966.0 8.13646924310477e-18 4.014773922952548e-16 0
3967.0 1.0635050291260394e-17 3.6606023217241913e-16 0
3968.0 1.2047037915364153e-17 3.45431094502587e-16 0
3969.0 9.294939467242905e-18 3.8147319831945414e-16 0
3970.0 6.630855351317355e-18 4.086215027001994e-16 0
3971.0 4.248093543045605e-18 4.073423439762232e-16 0
3972.0 3.813432457349017e-18 4.048128031320914e-16 0
3973.0 8.654841940816922e-18 3.988968335330633e-16 0
3974.0 1.1189411216113033e-17 3.952981959106942e-16 0
3975.0 8.367528002286633e-18 3.970803725252746e-16 0
3976.0 6.705529028111889e-18 3.9759972162601656e-16 0
3977.0 7.37322528476049e-18 3.955826079179998e-16 0
3978.0 8.165261423125635e-18 3.947831326134946e-16 0
3979.0 9.174789730519294e-18 3.9611351953674917e-16 0
3980.0 1.0388733320877755e-17 3.917055569776418e-16 0
3981.0 1.1915629885427508e-17 3.7851237292526967e-16 0
3982.0 1.0158970953031345e-17 3.750719545465431e-16 0
3983.0 3.9864202203184725e-18 3.8474754958946243e-16 0
3984.0 2.5779100619375485e-18 3.8745059802689243e-16 0
3985.0 6.81112932552649e-18 3.8189653347032547e-16 0
3986.0 8.936049904611752e-18 3.816666196390807e-16 0
3987.0 8.859470217444103e-18 3.8699622131933325e-16 0
3988.0 8.843924335761297e-18 3.8655308003345276e-16 0
3989.0 8.884593861978113e-18 3.8079293290199345e-16 0
3990.0 7.48290040124959e-18 3.789519565688794e-16 0
3991.0 4.910158425187667e-18 3.8029293872075104e-16 0
3992.0 4.380419480632869e-18 3.8751428052931855e-16 0
3993.0 5.3103575197578956e-18 3.9893699919061947e-16 0
3994.0 2.511048451725779e-18 4.0432653941090923e-16 0
3995.0 -2.6264905495609982e-18 4.059332896958351e-16 0
3996.0 -9.983749863691926e-19 4.0419542754337446e-16 0
3997.0 4.337407524030415e-18 4.006246741507335e-16 0
3998.0 7.611628898697405e-18 3.9816629645686743e-16 0
3999.0 9.903842070555062e-18 3.9623779005416463e-16 0
4000.0 7.279923567027785e-18 3.9909769536876934e-16 0
4001.0 2.635406665308824e-18 4.039257044049075e-16 0
4002.0 4.237710303698736e-18 4.040751233599088e-16 0
4003.0 8.03403663251976e-18 4.0258131713638407e-16 0
4004.0 7.022917541414125e-18 4.0106716017020763e-16 0
4005.0 4.587390624858819e-18 3.9954697344091277e-16 0
4006.0 7.720929320101538e-18 3.979742841536527e-16 0
4007.0 1.2222527917896392e-17 3.963886974345179e-16 0
4008.0 8.578108422884728e-18 4.0309791657852395e-16 0
4009.0 3.314078585600046e-18 4.1145632839679537e-16 0
4010.0 4.6415685247658875e-18 4.120671387407365e-16 0
4011.0 6.993281535755871e-18 4.1147408829832937e-16 0
4012.0 6.03590379724565e-18 4.1633362120706614e-16 0
4013.0 4.698029287777699e-18 4.218201210126163e-16 0
4014.0 5.9437255579754295e-18 4.168563757844504e-16 0
4015.0 7.38917172270959e-18 4.110846653324191e-16 0
4016.0 4.814678025087954e-18 4.1252963199209106e-16 0
4017.0 2.0709137184171403e-18 4.1427847666283687e-16 0
4018.0 -1.759061874541443e-18 4.1195777026957394e-16 0
4019.0 -5.480159562587294e-18 4.097750028812819e-16 0
4020.0 -3.9964628409870854e-18 4.1526350609934983e-16 0
4021.0 -2.301814233555179e-18 4.20298545916647e-16 0
4022.0 3.1120557756341262e-18 4.1733872577613586e-16 0
4023.0 8.169732268939466e-18 4.1453340473015073e-16 0
4024.0 9.394834149956595e-18 4.1339046461165735e-16 0
4025.0 1.032925583234359e-17 4.123124214146516e-16 0
4026.0 9.05701535230707e-18 4.117270350335537e-16 0
4027.0 7.704335436374492e-18 4.107835399579307e-16 0
4028.0 5.887688613589974e-18 4.077745084763798e-16 0
4029.0 4.465505573140458e-18 4.058887087024892e-16 0
4030.0 4.851131599658054e-18 4.091506273158059e-16 0
4031.0 5.872636948895806e-18 4.1097795680199664e-16 0
4032.0 9.279396026578938e-18 4.0742398366990675e-16 0
4033.0 1.1154101903281332e-17 4.0672211115863196e-16 0
4034.0 8.225809458838548e-18 4.149615955693904e-16 0
4035.0 5.474333282531971e-18 4.2220843966845364e-16 0
4036.0 3.1932501743808073e-18 4.2681451362393855e-16 0
4037.0 1.8161561694510652e-18 4.273849865963676e-16 0
4038.0 2.5032694661868407e-18 4.187403960396602e-16 0
4039.0 2.5854660956033803e-18 4.110944278561806e-16 0
4040.0 1.4717970504113828e-18 4.054226460070461e-16 0
4041.0 2.2398165277608294e-18 3.982401437036637e-16 0
4042.0 6.2494659525532985e-18 3.884550870412364e-16 0
4043.0 9.390382161623513e-18 3.844245510535516e-16 0
4044.0 1.12207873190305e-17 3.8907488832452855e-16 0
4045.0 8.81143958175786e-18 3.9224878579693286e-16 0
4046.0 7.819565434685776e-19 3.9346554292698455e-16 0
4047.0 -2.090365751138479e-19 3.8947146967030035e-16 0
4048.0 7.01742343054862e-18 3.793937399859065e-16 0
4049.0 1.0724398617334405e-17 3.7408392860710104e-16 0
4050.0 1.0807901170408491e-17 3.7368290996051895e-16 0
4051.0 9.20427175025685e-18 3.784276457921255e-16 0
4052.0 6.068556780728315e-18 3.878452443290727e-16 0
4053.0 6.079194316734792e-18 3.9431601715721336e-16 0
4054.0 8.608073617790397e-18 3.984282432042217e-16 0
4055.0 9.634539806721032e-18 3.955319029824552e-16 0
4056.0 9.60307933926065e-18 3.8770046933067137e-16 0
4057.0 8.926881076789358e-18 3.8664574274841965e-16 0
4058.0 7.852430102672673e-18 3.897769689478286e-16 0
4059.0 1.0993645084051235e-17 3.871238466322337e-16 0
4060.0 1.6409596028748074e-17 3.8134954115593446e-16 0
